{
  "AcquisitionMatrixPE": 128,
  "AcquisitionNumber": 1,
  "AcquisitionTime": "13:01:51.415000",
  "BandwidthPerPixelPhaseEncode": 8.401,
  "BaseResolution": 140,
  "BodyPartExamined": "BRAIN",
  "ConsistencyInfo": "N4_VE11C_LATEST_20160120",
  "ConversionSoftware": "dcm2niix",
  "ConversionSoftwareVersion": "v1.0.20191031",
  "DerivedVendorReportedEchoSpacing": 0.000929949,
  "DeviceSerialNumber": "67007",
  "DiffusionScheme": "Monopolar",
  "DwellTime": 2.4e-06,
  "EchoTime": 0.0988,
  "EchoTrainLength": 96,
  "EffectiveEchoSpacing": 0.000929949,
  "FlipAngle": 78,
  "ImageComments": "Unaliased_MB3_PE3",
  "ImageOrientationPatientDICOM": [1, 0, 0, 0, 0.992332, -0.123601],
  "ImageType": [
    "ORIGINAL",
    "PRIMARY",
    "DIFFUSION",
    "NONE",
    "MB",
    "ND",
    "MOSAIC"
],
  "ImagingFrequency": 123.219,
  "InPlanePhaseEncodingDirectionDICOM": "COL",
  "MRAcquisitionType": "2D",
  "MagneticFieldStrength": 3,
  "Manufacturer": "Siemens",
  "ManufacturersModelName": "Prisma_fit",
  "Modality": "MR",
  "MultibandAccelerationFactor": 3,
  "PartialFourier": 0.75,
  "PatientPosition": "HFS",
  "PercentPhaseFOV": 91.4286,
  "PhaseEncodingDirection": "j",
  "PhaseEncodingSteps": 96,
  "PhaseResolution": 1,
  "PixelBandwidth": 1490,
  "ProtocolName": "diff_mb3_PA_115",
  "PulseSequenceDetails": "%CustomerSeq%_cmrr_mbep2d_diff",
  "ReceiveCoilActiveElements": "HEA;HEP",
  "ReceiveCoilName": "Head_32",
  "ReconMatrixPE": 128,
  "RepetitionTime": 5.52,
  "SAR": 0.147505,
  "ScanOptions": "PFP",
  "ScanningSequence": "EP",
  "SequenceName": "ep_b5#1",
  "SequenceVariant": "SK_SS",
  "SeriesDescription": "diff_mb3_PA_115",
  "SeriesNumber": 24,
  "ShimSetting": [5241, -6332, -3817, 280, 119, 259, -35, -29],
  "SliceThickness": 1.5,
  "SliceTiming": [0, 2.5775, 5.155, 2.235, 4.8125, 1.89, 4.4675, 1.5475, 4.125, 1.2025, 3.78, 0.86, 3.4375, 0.515, 3.0925, 0.1725, 2.75, 5.3275, 2.405, 4.985, 2.0625, 4.64, 1.7175, 4.2975, 1.375, 3.9525, 1.03, 3.61, 0.6875, 3.265, 0.3425, 2.9225, 0, 2.5775, 5.155, 2.235, 4.8125, 1.89, 4.4675, 1.5475, 4.125, 1.2025, 3.78, 0.86, 3.4375, 0.515, 3.0925, 0.1725, 2.75, 5.3275, 2.405, 4.985, 2.0625, 4.64, 1.7175, 4.2975, 1.375, 3.9525, 1.03, 3.61, 0.6875, 3.265, 0.3425, 2.9225, 0, 2.5775, 5.155, 2.235, 4.8125, 1.89, 4.4675, 1.5475, 4.125, 1.2025, 3.78, 0.86, 3.4375, 0.515, 3.0925, 0.1725, 2.75, 5.3275, 2.405, 4.985, 2.0625, 4.64, 1.7175, 4.2975, 1.375, 3.9525, 1.03, 3.61, 0.6875, 3.265, 0.3425, 2.9225],
  "SoftwareVersions": "syngo_MR_E11",
  "SpacingBetweenSlices": 1.5,
  "StationName": "MRC35368",
  "TotalReadoutTime": 0.118103,
  "TxRefAmp": 239.405,
  "WipMemBlock": "3e358d5f-8af5-468f-9126-fb2fcc77a8d9||Sequence: R016 ve11c/master r/e634e98; Dec 19 2017 11:11:25 by eja",
  "dcmmeta_affine": [
    [-1.5, 0.0, 0.0, 105.67796325683594],
    [0.0, 1.4884978532791138, -0.18540221452713013, -70.05638122558594],
    [0.0, 0.18540221452713013, 1.4884978532791138, -38.61804962158203],
    [0.0, 0.0, 0.0, 1.0]
],
  "dcmmeta_reorient_transform": [
    [0.0, -1.0, 0.0, 127.0],
    [1.0, 0.0, 0.0, 0.0],
    [0.0, 0.0, 1.0, 0.0],
    [0.0, 0.0, 0.0, 1.0]
],
  "dcmmeta_shape": [140, 128, 96, 116],
  "dcmmeta_slice_dim": 2,
  "dcmmeta_version": 0.6,
  "global": {
    "const": {
      "AcquisitionMatrix": [140, 0, 0, 128],
      "AngioFlag": "N",
      "BitsAllocated": 16,
      "BitsStored": 16,
      "BodyPartExamined": "BRAIN",
      "Columns": 1400,
      "EchoNumbers": 1,
      "EchoTime": 98.8,
      "EchoTrainLength": 96,
      "FlipAngle": 78.0,
      "HighBit": 15,
      "ImageOrientationPatient": [1.0, 0.0, 0.0, 0.0, 0.99233193768643, -0.1236014783386],
      "ImagePositionPatient": [-1050.6779661179, -976.3576505049, 91.719707489387],
      "ImageType": [
        "ORIGINAL",
        "PRIMARY",
        "DIFFUSION",
        "NONE",
        "MB",
        "ND",
        "MOSAIC"
],
      "ImagedNucleus": "1H",
      "ImagingFrequency": 123.219439,
      "InPlanePhaseEncodingDirection": "COL",
      "MRAcquisitionType": "2D",
      "MagneticFieldStrength": 3.0,
      "Manufacturer": "SIEMENS",
      "ManufacturerModelName": "Prisma_fit",
      "Modality": "MR",
      "NumberOfAverages": 1.0,
      "NumberOfPhaseEncodingSteps": 96,
      "PercentPhaseFieldOfView": 91.428571428571,
      "PercentSampling": 100.0,
      "PerformedProcedureStepStartTime": "115355.361000",
      "PhotometricInterpretation": "MONOCHROME2",
      "PixelBandwidth": 1490.0,
      "PixelRepresentation": 0,
      "PixelSpacing": [1.5, 1.5],
      "ProtocolName": "diff_mb3_PA_115",
      "RepetitionTime": 5520.0,
      "Rows": 1280,
      "SAR": 0.14750505796248,
      "SamplesPerPixel": 1,
      "ScanOptions": "PFP",
      "ScanningSequence": "EP",
      "SequenceVariant": [
        "SK",
        "SS"
],
      "SeriesDescription": "diff_mb3_PA_115",
      "SeriesNumber": 24,
      "SeriesTime": "130350.861000",
      "SliceLocation": -29.662853932662,
      "SliceThickness": 1.5,
      "SmallestImagePixelValue": 0,
      "SoftwareVersions": "syngo MR E11",
      "SpacingBetweenSlices": 1.4999999976104,
      "SpecificCharacterSet": "ISO_IR 100",
      "StudyID": "1",
      "StudyTime": "115355.299000",
      "TransmitCoilName": "Body",
      "VariableFlipAngleFlag": "N",
      "WindowCenterWidthExplanation": "Algo1",
      "dBdt": 0.0},
    "slices": {}
  },
  "time": {
    "samples": {
      "AcquisitionNumber": [1, 2, 3, 4, 5, 6, 7, 8, 9, 10, 11, 12, 13, 14, 15, 16, 17, 18, 19, 20, 21, 22, 23, 24, 25, 26, 27, 28, 29, 30, 31, 32, 33, 34, 35, 36, 37, 38, 39, 40, 41, 42, 43, 44, 45, 46, 47, 48, 49, 50, 51, 52, 53, 54, 55, 56, 57, 58, 59, 60, 61, 62, 63, 64, 65, 66, 67, 68, 69, 70, 71, 72, 73, 74, 75, 76, 77, 78, 79, 80, 81, 82, 83, 84, 85, 86, 87, 88, 89, 90, 91, 92, 93, 94, 95, 96, 97, 98, 99, 100, 101, 102, 103, 104, 105, 106, 107, 108, 109, 110, 111, 112, 113, 114, 115, 116],
      "AcquisitionTime": ["130151.415000", "130156.935000", "130202.455000", "130207.975000", "130213.495000", "130219.015000", "130224.535000", "130230.055000", "130235.575000", "130241.095000", "130246.615000", "130252.135000", "130257.655000", "130303.175000", "130308.695000", "130314.215000", "130319.735000", "130325.255000", "130330.775000", "130336.295000", "130341.815000", "130347.335000", "130352.855000", "130358.375000", "130403.895000", "130409.415000", "130414.935000", "130420.455000", "130425.975000", "130431.495000", "130437.015000", "130442.535000", "130448.055000", "130453.575000", "130459.095000", "130504.615000", "130510.135000", "130515.655000", "130521.175000", "130526.695000", "130532.215000", "130537.735000", "130543.255000", "130548.775000", "130554.295000", "130559.815000", "130605.335000", "130610.855000", "130616.375000", "130621.895000", "130627.415000", "130632.935000", "130638.455000", "130643.975000", "130649.495000", "130655.015000", "130700.535000", "130706.055000", "130711.575000", "130717.095000", "130722.615000", "130728.135000", "130733.655000", "130739.175000", "130744.695000", "130750.215000", "130755.735000", "130801.255000", "130806.775000", "130812.295000", "130817.815000", "130823.335000", "130828.855000", "130834.375000", "130839.895000", "130845.415000", "130850.935000", "130856.455000", "130901.975000", "130907.495000", "130913.015000", "130918.535000", "130924.055000", "130929.575000", "130935.095000", "130940.615000", "130946.135000", "130951.655000", "130957.175000", "131002.695000", "131008.215000", "131013.735000", "131019.255000", "131024.775000", "131030.295000", "131035.815000", "131041.335000", "131046.855000", "131052.375000", "131057.895000", "131103.415000", "131108.935000", "131114.455000", "131119.975000", "131125.495000", "131131.015000", "131136.535000", "131142.055000", "131147.575000", "131153.095000", "131158.615000", "131204.135000", "131209.655000", "131215.175000", "131220.695000", "131226.215000"],
      "ContentTime": ["130350.864000", "130350.868000", "130350.872000", "130350.881000", "130350.885000", "130350.888000", "130350.892000", "130350.896000", "130350.899000", "130350.903000", "130350.906000", "130350.910000", "130350.914000", "130350.917000", "130350.921000", "130350.925000", "130350.928000", "130350.932000", "130350.935000", "130350.939000", "130350.943000", "130550.835000", "130550.839000", "130550.842000", "130550.846000", "130550.850000", "130550.853000", "130550.857000", "130550.860000", "130550.864000", "130550.868000", "130550.871000", "130550.875000", "130550.879000", "130550.882000", "130550.886000", "130550.890000", "130550.893000", "130550.897000", "130550.900000", "130550.904000", "130550.907000", "130550.911000", "130750.835000", "130750.843000", "130750.847000", "130750.851000", "130750.854000", "130750.858000", "130750.861000", "130750.865000", "130750.869000", "130750.872000", "130750.876000", "130750.880000", "130750.883000", "130750.887000", "130750.891000", "130750.894000", "130750.898000", "130750.901000", "130750.905000", "130750.909000", "130750.918000", "130750.922000", "130910.835000", "130910.839000", "130910.842000", "130910.846000", "130910.849000", "130910.853000", "130910.857000", "130910.860000", "130910.864000", "130910.868000", "130910.871000", "130910.875000", "130910.878000", "130910.882000", "131110.835000", "131110.839000", "131110.842000", "131110.846000", "131110.850000", "131110.853000", "131110.857000", "131110.860000", "131110.864000", "131110.868000", "131110.871000", "131110.875000", "131110.878000", "131110.882000", "131110.886000", "131110.889000", "131110.893000", "131110.896000", "131110.900000", "131110.904000", "131110.907000", "131110.911000", "131239.693000", "131239.697000", "131239.701000", "131239.705000", "131239.709000", "131239.713000", "131239.717000", "131239.721000", "131239.725000", "131239.730000", "131239.733000", "131239.738000", "131239.742000", "131239.747000", "131239.765000"],
      "InstanceCreationTime": ["130350.864000", "130350.868000", "130350.872000", "130350.881000", "130350.885000", "130350.888000", "130350.892000", "130350.896000", "130350.899000", "130350.903000", "130350.906000", "130350.910000", "130350.914000", "130350.917000", "130350.921000", "130350.925000", "130350.928000", "130350.932000", "130350.935000", "130350.939000", "130350.943000", "130550.835000", "130550.839000", "130550.842000", "130550.846000", "130550.850000", "130550.853000", "130550.857000", "130550.860000", "130550.864000", "130550.868000", "130550.871000", "130550.875000", "130550.879000", "130550.882000", "130550.886000", "130550.890000", "130550.893000", "130550.897000", "130550.900000", "130550.904000", "130550.907000", "130550.911000", "130750.835000", "130750.843000", "130750.847000", "130750.851000", "130750.854000", "130750.858000", "130750.861000", "130750.865000", "130750.869000", "130750.872000", "130750.876000", "130750.880000", "130750.883000", "130750.887000", "130750.891000", "130750.894000", "130750.898000", "130750.901000", "130750.905000", "130750.909000", "130750.918000", "130750.922000", "130910.835000", "130910.839000", "130910.842000", "130910.846000", "130910.849000", "130910.853000", "130910.857000", "130910.860000", "130910.864000", "130910.868000", "130910.871000", "130910.875000", "130910.878000", "130910.882000", "131110.835000", "131110.839000", "131110.842000", "131110.846000", "131110.850000", "131110.853000", "131110.857000", "131110.860000", "131110.864000", "131110.868000", "131110.871000", "131110.875000", "131110.878000", "131110.882000", "131110.886000", "131110.889000", "131110.893000", "131110.896000", "131110.900000", "131110.904000", "131110.907000", "131110.911000", "131239.693000", "131239.697000", "131239.701000", "131239.705000", "131239.709000", "131239.713000", "131239.717000", "131239.721000", "131239.725000", "131239.730000", "131239.733000", "131239.738000", "131239.742000", "131239.747000", "131239.765000"],
      "InstanceNumber": [1, 2, 3, 4, 5, 6, 7, 8, 9, 10, 11, 12, 13, 14, 15, 16, 17, 18, 19, 20, 21, 22, 23, 24, 25, 26, 27, 28, 29, 30, 31, 32, 33, 34, 35, 36, 37, 38, 39, 40, 41, 42, 43, 44, 45, 46, 47, 48, 49, 50, 51, 52, 53, 54, 55, 56, 57, 58, 59, 60, 61, 62, 63, 64, 65, 66, 67, 68, 69, 70, 71, 72, 73, 74, 75, 76, 77, 78, 79, 80, 81, 82, 83, 84, 85, 86, 87, 88, 89, 90, 91, 92, 93, 94, 95, 96, 97, 98, 99, 100, 101, 102, 103, 104, 105, 106, 107, 108, 109, 110, 111, 112, 113, 114, 115, 116],
      "LargestImagePixelValue": [65535, 15148, 4534, 4058, 4476, 14393, 3490, 4754, 4517, 16540, 4841, 4831, 15502, 4074, 3975, 4270, 17422, 4411, 4107, 5507, 14550, 65535, 4262, 4240, 16098, 4173, 4553, 4301, 16579, 4422, 4979, 4204, 15396, 4735, 5128, 16743, 4224, 4402, 3864, 15508, 4836, 65535, 4143, 4372, 14992, 4344, 4142, 15476, 4193, 4307, 4563, 16308, 4139, 4291, 3674, 14496, 4691, 4651, 15716, 4284, 4871, 65535, 3874, 16356, 5015, 4077, 4245, 15782, 4023, 4115, 15593, 4798, 4008, 4357, 14796, 4876, 3792, 4294, 16150, 4061, 3863, 65535, 14847, 4821, 4236, 4527, 14116, 4096, 4239, 4528, 14778, 4759, 4042, 14381, 4132, 4794, 4129, 14553, 4140, 4061, 4631, 65535, 14891, 3789, 4124, 14880, 4424, 3640, 4183, 14922, 4599, 4444, 4104, 13982, 4364, 4164],
      "SequenceName": [
 "ep_b5#1",
 "ep_b1000#1",
 "ep_b3005#2",
 "ep_b2990#3",
 "ep_b3000#4",
 "ep_b1000#5",
 "ep_b3005#6",
 "ep_b2990#7",
 "ep_b3005#8",
 "ep_b995#9",
 "ep_b3000#10",
 "ep_b3010#11",
 "ep_b1005#12",
 "ep_b2995#13",
 "ep_b2995#14",
 "ep_b3010#15",
 "ep_b1005#16",
 "ep_b2995#17",
 "ep_b3000#18",
 "ep_b2990#19",
 "ep_b1005#20",
 "ep_b5#21",
 "ep_b3000#22",
 "ep_b2995#23",
 "ep_b1005#24",
 "ep_b3000#25",
 "ep_b3010#26",
 "ep_b3000#27",
 "ep_b1000#28",
 "ep_b2990#29",
 "ep_b3005#30",
 "ep_b2995#31",
 "ep_b1000#32",
 "ep_b3005#33",
 "ep_b2995#34",
 "ep_b1000#35",
 "ep_b2995#36",
 "ep_b3005#37",
 "ep_b3000#38",
 "ep_b995#39",
 "ep_b2995#40",
 "ep_b5#41",
 "ep_b3010#42",
 "ep_b3000#43",
 "ep_b1005#44",
 "ep_b3000#45",
 "ep_b2990#46",
 "ep_b1000#47",
 "ep_b3000#48",
 "ep_b3000#49",
 "ep_b2995#50",
 "ep_b995#51",
 "ep_b2995#52",
 "ep_b2990#53",
 "ep_b3005#54",
 "ep_b1005#55",
 "ep_b2995#56",
 "ep_b3005#57",
 "ep_b1000#58",
 "ep_b3005#59",
 "ep_b3010#60",
 "ep_b5#61",
 "ep_b3005#62",
 "ep_b1005#63",
 "ep_b3005#64",
 "ep_b3000#65",
 "ep_b3010#66",
 "ep_b1000#67",
 "ep_b3000#68",
 "ep_b2995#69",
 "ep_b995#70",
 "ep_b2995#71",
 "ep_b3000#72",
 "ep_b3010#73",
 "ep_b995#74",
 "ep_b3010#75",
 "ep_b3005#76",
 "ep_b3000#77",
 "ep_b1005#78",
 "ep_b3000#79",
 "ep_b3000#80",
 "ep_b5#81",
 "ep_b995#82",
 "ep_b2995#83",
 "ep_b3010#84",
 "ep_b2995#85",
 "ep_b1000#86",
 "ep_b2995#87",
 "ep_b3000#88",
 "ep_b2990#89",
 "ep_b995#90",
 "ep_b3005#91",
 "ep_b2990#92",
 "ep_b1000#93",
 "ep_b3000#94",
 "ep_b3005#95",
 "ep_b2995#96",
 "ep_b1000#97",
 "ep_b2990#98",
 "ep_b3000#99",
 "ep_b3005#100",
 "ep_b5#101",
 "ep_b1005#102",
 "ep_b3010#103",
 "ep_b3005#104",
 "ep_b995#105",
 "ep_b2995#106",
 "ep_b3000#107",
 "ep_b3010#108",
 "ep_b1000#109",
 "ep_b3005#110",
 "ep_b2990#111",
 "ep_b3005#112",
 "ep_b1005#113",
 "ep_b2995#114",
 "ep_b2995#115"
],
      "WindowCenter": [6088.0, 2597.0, 1073.0, 1058.0, 1070.0, 2595.0, 1053.0, 1066.0, 1056.0, 2585.0, 1068.0, 1066.0, 2592.0, 1059.0, 1068.0, 1059.0, 2626.0, 1067.0, 1062.0, 1061.0, 2581.0, 6112.0, 1072.0, 1072.0, 2583.0, 1062.0, 1055.0, 1063.0, 2641.0, 1067.0, 1077.0, 1060.0, 2615.0, 1067.0, 1060.0, 2637.0, 1062.0, 1074.0, 1070.0, 2617.0, 1077.0, 6164.0, 1060.0, 1073.0, 2616.0, 1074.0, 1067.0, 2611.0, 1068.0, 1077.0, 1075.0, 2639.0, 1060.0, 1068.0, 1060.0, 2587.0, 1065.0, 1076.0, 2642.0, 1067.0, 1073.0, 6157.0, 1064.0, 2635.0, 1071.0, 1068.0, 1064.0, 2641.0, 1071.0, 1074.0, 2600.0, 1062.0, 1069.0, 1068.0, 2631.0, 1075.0, 1062.0, 1069.0, 2672.0, 1063.0, 1071.0, 6149.0, 2617.0, 1069.0, 1060.0, 1078.0, 2626.0, 1073.0, 1068.0, 1073.0, 2620.0, 1074.0, 1063.0, 2612.0, 1066.0, 1078.0, 1068.0, 2602.0, 1061.0, 1071.0, 1077.0, 6178.0, 2623.0, 1060.0, 1061.0, 2631.0, 1074.0, 1065.0, 1069.0, 2614.0, 1075.0, 1069.0, 1077.0, 2613.0, 1061.0, 1076.0],
      "WindowWidth": [13658.0, 6157.0, 2825.0, 2769.0, 2811.0, 6144.0, 2751.0, 2796.0, 2764.0, 6140.0, 2806.0, 2795.0, 6166.0, 2772.0, 2804.0, 2771.0, 6218.0, 2801.0, 2782.0, 2779.0, 6123.0, 13710.0, 2817.0, 2821.0, 6123.0, 2782.0, 2756.0, 2784.0, 6245.0, 2799.0, 2834.0, 2776.0, 6197.0, 2799.0, 2774.0, 6237.0, 2784.0, 2826.0, 2809.0, 6199.0, 2835.0, 13849.0, 2775.0, 2821.0, 6210.0, 2828.0, 2798.0, 6177.0, 2803.0, 2838.0, 2827.0, 6235.0, 2774.0, 2804.0, 2774.0, 6140.0, 2792.0, 2832.0, 6252.0, 2803.0, 2821.0, 13802.0, 2786.0, 6250.0, 2814.0, 2805.0, 2787.0, 6247.0, 2816.0, 2824.0, 6164.0, 2783.0, 2806.0, 2802.0, 6231.0, 2828.0, 2782.0, 2807.0, 6318.0, 2786.0, 2815.0, 13845.0, 6215.0, 2808.0, 2774.0, 2841.0, 6214.0, 2820.0, 2801.0, 2817.0, 6218.0, 2826.0, 2784.0, 6183.0, 2796.0, 2841.0, 2803.0, 6179.0, 2779.0, 2816.0, 2835.0, 13905.0, 6233.0, 2773.0, 2780.0, 6228.0, 2826.0, 2790.0, 2804.0, 6187.0, 2829.0, 2806.0, 2837.0, 6195.0, 2777.0, 2832.0]
    },
    "slices": {}
  }
}
